MT = 1
Total no. of energy Points = 2003
Energy in eV  :  Xsec in barns 
 
1e-05  54.7805706254
1.090516e-05  52.4675301061
1.176413e-05  50.5245802976
1.257105e-05  48.8841651279
1.332237e-05  47.4930058765
1.474673e-05  45.1542278716
1.591407e-05  43.476920596
1.74900625e-05  41.4851714376
1.835751e-05  40.5003008367
2.0113571875e-05  38.7057483997
2.181024e-05  37.1825745862
2.35281e-05  35.8119233186
2.514186e-05  34.6548893004
2.664444e-05  33.6738057691
2.949314e-05  32.0247397962
3.182781e-05  30.8423852654
3.51787629192e-05  29.3565716451
3.671479e-05  28.7448390047
4.04555773571e-05  27.4043293935
4.362039e-05  26.4083201078
4.705604e-05  25.4435921157
5.028349e-05  24.6294919647
5.35025010547e-05  23.8925297278
5.898596e-05  22.7799560162
6.365529e-05  21.9490813545
6.739828e-05  21.346885444
7.342935e-05  20.4761103246
8.13706162916e-05  19.4821148802
8.458977e-05  19.1200584205
9.35762087354e-05  18.2112855949
0.0001  17.6390867687
0.0001090516  16.9214294904
0.0001176413  16.3195590412
0.0001257105  15.8121683783
0.0001332237  15.3824776719
0.0001474673  14.6614867001
0.000163665373929  13.9609703388
0.0001835751  13.233028602
0.0002  12.7181161322
0.0002181024  12.2211254078
0.000235281  11.8050307859
0.0002514186  11.4548168765
0.0002664444  11.1586737582
0.0002949314  10.6627691272
0.000329189526198  10.1569812703
0.0003671479  9.68476325417
0.0004  9.333990688
0.0004362039  8.99653764714
0.0004705604  8.71492411755
0.0005028349  8.47861605201
0.0005328858  8.27935345622
0.0005898596  7.94694889673
0.000662117719568  7.59300136636
0.0007342935  7.2969386635
0.0008  7.06595038649
0.000875650684128  6.83582855209
0.0009197275  6.71633186224
0.00100699828675  6.50572227848
0.0010905086  6.33095027094
0.0011763986  6.17327379402
0.0012570838  6.0419798322
0.0013322101  5.93204777235
0.0014746442  5.75039026381
0.0015913772  5.6227648911
0.00176124629726  5.46379920527
0.002  5.28129365333
0.0021810163  5.16699816332
0.0023527956  5.07335078163
0.0026644172  4.93188026572
0.0029492852  4.82690395875
0.0031827511  4.75401673843
0.00354249539895  4.65951910143
0.004  4.56282219559
0.0047055896  4.44933360095
0.0053288314  4.37346925191
0.0063654989  4.27965386753
0.00712522358237  4.22804624163
0.0084589708  4.1597296783
0.00942310818769  4.12234355697
0.0117639715  4.05703310063
0.0143313696649  4.00991874988
0.0168494898  3.97765237533
0.0212105848  3.93989222525
0.0253  3.91630947527
0.0318041629  3.89129312958
0.0464439207  3.86061638937
0.0670777496  3.8401124821
0.101404554951  3.82448613579
0.234554897514  3.8071443986
1.0912411871  3.79676179507
78000  3.62816738971
153000  3.48964044175
190000  3.43336475916
231000  3.38827447619
260000  3.37464485032
280000  3.38296437017
300000  3.41525852219
320000  3.48934173376
340000  3.64286515516
360000  3.96539035049
380000  4.70521295649
390000  5.43819660413
395000  5.97658791991
400000  6.68602317825
405000  7.62606470152
410000  8.86701093929
415000  10.4670893445
420000  12.4047599258
425000  14.4460068991
430000  16.035472857
434000  16.521109515
435000  16.5034527506
440000  15.639211483
445000  13.9144484071
450000  11.9800947937
455000  10.2379823778
460000  8.81661853902
465000  7.70372998046
470000  6.84291001388
475000  6.17559714425
480000  5.65389855896
500000  4.41782987328
520000  3.83131897013
540000  3.50362767275
560000  3.29691039383
580000  3.15416210921
600000  3.04863741674
620000  2.96653665997
640000  2.90023960818
660000  2.84534237114
680000  2.79927236952
703000  2.75580416319
720000  2.7286873361
741000  2.70269882539
760000  2.6860056364
780000  2.67749689831
800000  2.680771152
820000  2.70037709572
830000  2.71851024401
840000  2.74392134491
850000  2.77841973426
861000  2.83044373841
870000  2.88509550427
880000  2.96483562741
890000  3.06955863737
900000  3.20740746432
910000  3.3895834805
920000  3.63137792279
930000  3.95313600891
940000  4.38021889467
950000  4.93940972978
960000  5.64607492932
980000  7.30893523359
990000  7.9337937349
1000000  8.12586000075
1010000  7.83381956834
1020000  7.21441880791
1030000  6.4839987169
1040000  5.78984613524
1050000  5.19334849935
1060000  4.70383079994
1070000  4.30915432529
1080000  3.99184707562
1090000  3.73553767881
1100000  3.52676912323
1110000  3.35507238424
1120000  3.2124822354
1130000  3.09300656953
1140000  2.99215061433
1150000  2.90657073682
1160000  2.83380809968
1170000  2.77211893388
1180000  2.72037216632
1190000  2.67801593234
1200000  2.64511663108
1210000  2.62251510853
1220000  2.61214291679
1230000  2.61765014953
1240000  2.64563411425
1250000  2.70807020744
1255000  2.75861201405
1260000  2.82759671504
1265000  2.9212929148
1270000  3.04867092336
1275000  3.22252340928
1280000  3.46084408594
1285000  3.78778567417
1290000  4.23177210389
1295000  4.81400824123
1305000  6.21237257049
1307000  6.43810840855
1309000  6.60571295222
1311000  6.70059459976
1313000  6.71467258177
1315000  6.64838814278
1317000  6.51039258323
1319000  6.31526747011
1321000  6.08022721992
1326000  5.42827338498
1330000  4.91810411378
1335000  4.37852460642
1340000  3.95094265955
1345000  3.61940690174
1350000  3.36263863156
1360000  3.00263092307
1370000  2.76985864987
1380000  2.61026345345
1390000  2.49484097344
1400000  2.40745214068
1410000  2.338671918
1420000  2.28273725549
1431000  2.23195758596
1440000  2.19596350272
1460000  2.13005225828
1480000  2.07674547758
1510000  2.01133642215
1550000  1.94071262079
1590000  1.88391494487
1604000  1.86912330912
1612000  1.86381356566
1620000  1.86387091103
1624000  1.86806846375
1628000  1.8778707392
1630000  1.88631281234
1632000  1.89853663349
1634000  1.91644115217
1636000  1.94328569429
1638000  1.98502961753
1640000  2.05322046424
1641000  2.10426540326
1642000  2.17380501857
1643000  2.2711278207
1644000  2.41226869569
1644500  2.51627178613
1645000  2.6260464563
1645500  2.79130913343
1646000  2.96475470876
1646250  3.08330255644
1646500  3.2109194797
1646750  3.36843057232
1647000  3.53682070067
1647375  3.85508746298
1647500  3.97140771355
1647875  4.39834173549
1648000  4.55409427352
1648125  4.73642165608
1648375  5.12259490926
1648500  5.32769893106
1648625  5.56263966204
1649000  6.31177827802
1649500  7.43372951793
1649875  8.20564288395
1650000  8.42971728849
1650125  8.57588469893
1650375  8.80454496272
1650437.5  8.8506976305
1650500  8.87263652036
1650562.5  8.86114226425
1650750  8.73384404735
1650937.5  8.58341711298
1651000  8.51076393237
1651062.5  8.41379343011
1651250  8.05536657267
1651500  7.55534856281
1652000  6.43447014161
1652250  5.92367773584
1652500  5.43304850662
1652625  5.22282809161
1652875  4.82614234954
1653000  4.63871259059
1653125  4.47819437463
1653500  4.03765919095
1653625  3.91743298708
1653875  3.69392235797
1654000  3.59064579925
1654125  3.50831536724
1654875  3.06511563971
1655000  2.99796660468
1655125  2.94737022582
1656000  2.64359475605
1656500  2.52905946361
1657000  2.42049860623
1658000  2.27227368831
1659000  2.16921366584
1660000  2.09476327291
1661000  2.03923660979
1662000  1.99667660461
1663000  1.96328400453
1664000  1.9365466841
1666000  1.89670602255
1668000  1.86865745178
1670000  1.84791972518
1674000  1.81925368773
1678000  1.80011226809
1682000  1.78630560341
1686000  1.77800887221
1687000  1.77957689058
1687750  1.78878665189
1687937.5  1.79349982457
1688000  1.80030090672
1688100  1.82225435507
1688700  1.99836537827
1688800  2.03233514754
1688850  2.05606851736
1688875  2.07238322948
1688900  2.09395966815
1688925  2.12330858229
1688950  2.16334494071
1688975  2.21687633894
1689000  2.28599175449
1689020  2.35324872801
1689040  2.43140164385
1689060  2.5208418557
1689080  2.62272320145
1689100  2.73954676047
1689120  2.875471973
1689130  2.95230986503
1689140  3.03609136881
1689150  3.12758499863
1689160  3.2274900315
1689170  3.3363690975
1689180  3.45457491687
1689190  3.58217520867
1689200  3.7188806469
1689220  4.01629803717
1689260  4.65683243768
1689280  4.95501923985
1689290  5.08638128744
1689300  5.20112890342
1689310  5.29595924536
1689320  5.36800167526
1689330  5.4149666286
1689340  5.43526766237
1689350  5.42810732963
1689360  5.39352020917
1689370  5.33236980654
1689380  5.24629978707
1689390  5.1376436931
1689400  5.00930054193
1689410  4.86458615335
1689420  4.70707148304
1689440  4.36823165916
1689460  4.02055862322
1689480  3.68714683056
1689490  3.53116912455
1689500  3.38430070844
1689510  3.24746450222
1689520  3.12119354708
1689530  3.00568218625
1689540  2.90084224601
1689550  2.80635981879
1689560  2.72174923105
1689570  2.64640183369
1689580  2.57962825396
1689590  2.5206936073
1689600  2.46884583101
1689612.5  2.41286560977
1689625  2.36538421522
1689637.5  2.32508066627
1689650  2.29074458664
1689675  2.23575984049
1689700  2.19330361785
1689750  2.12726123557
1689800  2.07027366286
1689900  1.96315261607
1689950  1.91665756367
1690000  1.88124958786
1690031.25  1.8661284246
1690062.5  1.85602169865
1690125  1.84607401956
1692000  1.76607653934
1694000  1.75744248019
1710000  1.72817934215
1772000  1.63483376449
1788000  1.60553376226
1812000  1.55244223554
1816000  1.55096169658
1818000  1.55649556601
1820000  1.57142756907
1822000  1.60474894915
1823000  1.63383145181
1824000  1.67676063085
1825000  1.74040237519
1826000  1.83581504807
1826500  1.90629121265
1827000  1.98063686435
1827500  2.08855566984
1828000  2.20241271906
1828750  2.45143211774
1829000  2.54054106333
1829500  2.78373919868
1830000  3.03676115553
1831000  3.68791214705
1831750  4.18982516963
1832000  4.34837653048
1832750  4.64307047414
1833000  4.72897922775
1833150  4.7495751357
1833300  4.75485236151
1833650  4.71202768325
1834000  4.65519837126
1834500  4.4742401379
1835000  4.28397187585
1836000  3.84420199304
1837000  3.45395140116
1838000  3.14201420066
1839000  2.90084112108
1840000  2.71504982997
1841000  2.57068883245
1842000  2.45704581851
1843000  2.36631566708
1844000  2.29288676535
1845000  2.23271583542
1846000  2.18285980956
1847000  2.14115270635
1848000  2.10597577648
1849000  2.0761056752
1851000  2.02874752835
1853000  1.99381649212
1855000  1.96804944968
1857000  1.94936505709
1859000  1.93641937702
1861000  1.92835319456
1863000  1.92463801685
1866000  1.92670274164
1868000  1.93306927614
1870000  1.94361216639
1872000  1.95864652874
1874000  1.97864451988
1876000  2.00424631566
1878000  2.03627107698
1880000  2.07572696511
1882000  2.12382045412
1884000  2.18192253215
1886000  2.25150242724
1888000  2.33394905682
1890000  2.43024558701
1892000  2.54040468014
1894000  2.66262058261
1898000  2.92068001734
1900000  3.03566988926
1902000  3.12265511687
1904000  3.16869035842
1906000  3.16686177691
1908000  3.1188656314
1910000  3.03400705675
1912000  2.92542229138
1916000  2.68579580288
1918000  2.57141450818
1920000  2.46638918621
1922000  2.37210073478
1924000  2.28858794883
1926000  2.21516805051
1928000  2.15083373521
1930000  2.09448699156
1932000  2.04506674195
1934000  2.00160631205
1936000  1.96325466373
1940000  1.89904136532
1944000  1.84776723392
1946000  1.82591139273
1950000  1.78810843398
1955000  1.74949353211
1960000  1.71797359902
1965000  1.69167829059
1975000  1.64991710592
1985000  1.61763054063
1995000  1.59127530494
2016000  1.54776486851
2040000  1.50629250568
2120000  1.3865230715
2145000  1.34402881792
2160000  1.31607496678
2180000  1.2726017387
2200000  1.21981399195
2211000  1.18501178996
2220000  1.15302880394
2230000  1.11228675722
2240000  1.06513691087
2250000  1.01016127124
2260000  0.945719394725
2270000  0.870050357453
2280000  0.781530199959
2290000  0.679235369333
2300000  0.563967496759
2320000  0.315880213426
2330000  0.206929912265
2335000  0.163741070665
2340000  0.131048358247
2345000  0.110533807009
2350000  0.103203645965
2355000  0.109216521457
2360000  0.127864643297
2365000  0.157691836768
2370000  0.196729975154
2380000  0.293353152864
2390000  0.400679506985
2400000  0.506033379271
2410000  0.602142112026
2420000  0.686018430982
2430000  0.757309444282
2440000  0.81698728292
2450000  0.8665339104
2460000  0.907507125313
2470000  0.941342867268
2480000  0.969283605905
2490000  0.992370395847
2500000  1.01145982894
2510000  1.02725092069
2520000  1.04031362085
2540000  1.06001720097
2556000  1.07095061879
2570000  1.07823265936
2590000  1.08532774156
2620000  1.09114440233
2680000  1.09331999968
2740000  1.09139578279
2800000  1.09230281778
2840000  1.09838998754
2860000  1.10544116992
2880000  1.12704811055
2882000  1.13421631754
2884000  1.14678530923
2885000  1.1576381845
2886000  1.1757562545
2886750  1.20150483607
2887000  1.2129362399
2887250  1.23614412255
2887750  1.28788822715
2887875  1.30329227915
2887937.5  1.31582788998
2888000  1.33563138472
2888050  1.3578596473
2888100  1.38511975932
2888200  1.44833191393
2888600  1.71775687882
2888650  1.75470723004
2888700  1.79787008069
2888725  1.82371087036
2888750  1.85370691298
2888775  1.88890641262
2888800  1.93027891516
2888825  1.97859355442
2888850  2.03430080571
2888875  2.09742559606
2888900  2.1674711372
2888950  2.32318993292
2889000  2.48382746365
2889025  2.55712328718
2889050  2.61969946931
2889075  2.66665446302
2889087.5  2.68278973268
2889100  2.69331402362
2889112.5  2.6977685337
2889125  2.69577776715
2889137.5  2.68706491511
2889150  2.67146467969
2889162.5  2.64893276797
2889175  2.61955142922
2889187.5  2.58353060549
2889200  2.54120450126
2889212.5  2.4930236323
2889225  2.43954267041
2889250  2.31932220658
2889275  2.18639791474
2889325  1.90737348127
2889350  1.7726161884
2889375  1.64691638929
2889387.5  1.58839488833
2889400  1.53309179149
2889412.5  1.48116074826
2889425  1.43268633368
2889437.5  1.38769193061
2889450  1.34614827612
2889462.5  1.30798219844
2889475  1.27308513996
2889487.5  1.24132114437
2889500  1.21253407442
2889512.5  1.18655391446
2889525  1.16320209371
2889550  1.12365160814
2889575  1.092426454
2889600  1.0681278258
2889625  1.04945618723
2889650  1.0352348383
2889675  1.02442570677
2889700  1.01614141294
2889750  1.00438858698
2889800  0.995980180373
2889900  0.982939178606
2890000  0.974697991177
2890062.5  0.973018903327
2890125  0.973599816831
2892000  1.04589453514
2894000  1.07146297337
2896000  1.08325392592
2898000  1.09029720845
2900000  1.09516103914
2905000  1.1032220672
2940000  1.1354044172
2960000  1.15618347243
2980000  1.18319590321
2990000  1.20103995575
2995000  1.21263770587
3000000  1.22989755648
3002000  1.24198498215
3003000  1.25143843208
3004000  1.26633082004
3004500  1.27972401405
3005000  1.29574671905
3005750  1.35455383242
3005937.5  1.37322318994
3006000  1.38349659594
3006125  1.41353339181
3006375  1.48967775011
3006437.5  1.51309912947
3006500  1.54279412071
3006550  1.57349906431
3006600  1.61232201706
3006650  1.66117640854
3006675  1.69010879013
3006700  1.72254888108
3006725  1.7589508055
3006750  1.79982092829
3006775  1.84569574612
3006800  1.8971020777
3006825  1.95449443803
3006850  2.01816495421
3006875  2.08812385697
3006900  2.16395430075
3007000  2.4944611595
3007025  2.56904563418
3007050  2.63203600687
3007075  2.67874389344
3007087.5  2.69462672106
3007100  2.70489914721
3007112.5  2.70917849999
3007125  2.70717092004
3007137.5  2.69868314005
3007150  2.68363143506
3007162.5  2.66204727018
3007175  2.63407930443
3007187.5  2.59999156326
3007200  2.56015776318
3007225  2.4652358218
3007250  2.35406232264
3007275  2.23224677812
3007325  1.97983139998
3007350  1.85951861469
3007375  1.74837082341
3007400  1.64883643518
3007412.5  1.60386896921
3007425  1.56220567299
3007437.5  1.52385237244
3007450  1.48876515883
3007462.5  1.45685744322
3007475  1.42800691691
3007500  1.37884947618
3007515.625  1.35338351049
3007531.25  1.33149147208
3007546.875  1.31276515371
3007562.5  1.29679730308
3007593.75  1.27157956598
3007625  1.25298457594
3007656.25  1.23869426614
3007750  1.20724247236
3007875  1.17249164482
3007937.5  1.15798377335
3008000  1.1474196105
3008062.5  1.14160428549
3008125  1.13972941287
3010000  1.18397908644
3020000  1.23795746447
3040000  1.29444208045
3050000  1.32512737336
3060000  1.35908426385
3070000  1.39690269086
3081000  1.44379363658
3090000  1.48619757801
3100000  1.53868949574
3110000  1.59707599774
3120000  1.66182527464
3130000  1.73334555228
3140000  1.8119520327
3150000  1.89781593542
3160000  1.99092064357
3170000  2.09104397238
3180000  2.19785119992
3190000  2.31160415969
3201000  2.4542925204
3203000  2.48834613763
3205000  2.53279224504
3206000  2.56363396389
3207000  2.60690663778
3208000  2.67628363995
3208500  2.73837990392
3209000  2.80737486035
3209250  2.86228340869
3209500  2.92797991812
3209750  3.02076095707
3209875  3.07200445456
3210000  3.13298284796
3210125  3.21148067441
3210375  3.39287505711
3210437.5  3.44491775145
3210500  3.50464058612
3210562.5  3.57351555996
3210625  3.6500706738
3210875  3.98414928492
3211000  4.16983821874
3211125  4.38379169748
3211375  4.83572364115
3211437.5  4.93123098217
3211500  5.00440930113
3211562.5  5.05097589434
3211625  5.07520841768
3211750  5.09135029016
3211875  5.08867768154
3211937.5  5.06982527278
3212000  5.0267186762
3212062.5  4.95471421895
3212125  4.85846338154
3212375  4.39726134247
3212500  4.17797334054
3212625  3.9864825362
3212875  3.64053551108
3212937.5  3.56152960568
3213000  3.49084607787
3213062.5  3.43007821673
3213125  3.37763171802
3213375  3.19684743466
3213500  3.11950543701
3213625  3.06084745568
3213875  2.96708990055
3214000  2.92794600686
3214125  2.90012126013
3215000  2.75995313414
3215500  2.72542187002
3216000  2.69690693418
3218000  2.66301563162
3220000  2.66515177462
3230000  2.75473663477
3240000  2.85525727366
3250000  2.94844217993
3260000  3.03082565774
3270000  3.10065422616
3280000  3.15706635833
3290000  3.1999797479
3300000  3.22998917173
3310000  3.24823448979
3321000  3.25621339958
3340000  3.24841996373
3360000  3.22028896941
3400000  3.14621111838
3430000  3.10003306531
3434000  3.09899963447
3436000  3.1098436368
3437875  3.24605363164
3438000  3.27192077669
3438100  3.31456127737
3438150  3.34541490775
3438200  3.38380410591
3438250  3.43109494087
3438300  3.48928269029
3438350  3.56113120496
3438400  3.64991020959
3438450  3.75889468508
3438500  3.89122145761
3438550  4.04977797471
3438600  4.23572620938
3438650  4.44545247253
3438750  4.88801394298
3438800  5.08681631216
3438825  5.17354063809
3438850  5.24968724693
3438875  5.31388215579
3438900  5.364859982
3438925  5.40145591613
3438950  5.42267318452
3438975  5.42782224293
3439000  5.41669512651
3439025  5.389717673
3439050  5.34802298847
3439075  5.29341169623
3439100  5.22819917066
3439150  5.07638740653
3439250  4.75087752787
3439300  4.60033691669
3439350  4.46494191314
3439400  4.34666913118
3439450  4.24592528015
3439500  4.16162515206
3439550  4.09178465482
3439600  4.03437530318
3439650  3.98767721302
3439700  3.95017685209
3439800  3.89782349467
3439900  3.87104892516
3440000  3.86835187564
3440125  3.89495416799
3440250  3.93838270957
3440375  3.99001935956
3440437.5  4.02448300834
3440500  4.07044764967
3440562.5  4.12996572369
3440625  4.2009847967
3440750  4.36036360251
3440875  4.52886767766
3441000  4.71875727622
3441125  4.94554296375
3441250  5.19239871469
3441375  5.42519497778
3441437.5  5.51248817572
3441468.75  5.5421805552
3441500  5.56056439762
3441531.25  5.56714417759
3441562.5  5.56241549394
3441625  5.52504553364
3441750  5.39164087521
3441875  5.23591505215
3442000  5.05525727456
3442125  4.83273642567
3442375  4.34219239407
3442437.5  4.22966960815
3442500  4.13033254894
3442562.5  4.04653963989
3442625  3.97593738048
3442750  3.85453937916
3442875  3.74198735495
3443000  3.64509102384
3443125  3.57499611182
3443250  3.52027719303
3443500  3.42499873689
3443750  3.36358364607
3444000  3.31437229139
3444500  3.25183885481
3445000  3.21338273293
3446000  3.16958822547
3447000  3.14591198314
3449000  3.12195151954
3450000  3.11520690308
3460000  3.08963170213
3486000  3.07743482064
3520000  3.083021327
3580000  3.11028891654
