Total Xsec in barns
Total no. of energy Points = 44882
Energy in eV  :  Xsec in barns 
 
1e-05  4403.86046437
1.0609e-05  4275.63178644
1.12550881e-05  4151.13903328
1.19405229653e-05  4030.27341901
1.26677008139e-05  3912.92932669
1.34391637934e-05  3799.00421588
1.42576088685e-05  3688.39853298
1.51258972486e-05  3581.01562428
1.6047064391e-05  3476.76165136
1.70243306124e-05  3375.54550911
1.80611123467e-05  3277.27874603
1.91610340886e-05  3181.8754869
2.03279410646e-05  3089.25235762
2.15659126754e-05  2999.32841241
2.28792767574e-05  2912.02506287
2.42726247119e-05  2827.26600934
2.57508275569e-05  2744.97717407
2.73190529551e-05  2665.08663644
2.898278328e-05  2587.52457003
3.07478347818e-05  2512.22318151
3.262037792e-05  2439.11665123
3.46069589353e-05  2368.14107573
3.67145227345e-05  2299.2344117
3.8950437169e-05  2232.33642168
4.13225187926e-05  2167.38862133
4.38390601871e-05  2104.33422819
4.65088589525e-05  2043.11811191
4.93412484627e-05  1983.68674605
5.2346130494e-05  1925.9881611
5.55340098411e-05  1869.97189902
5.89160310405e-05  1815.58896901
6.25040173308e-05  1762.79180456
6.63105119863e-05  1711.53422185
7.03488221662e-05  1661.77137927
7.46330654362e-05  1613.45973817
7.91782191212e-05  1566.55702472
8.40001726657e-05  1521.02219296
8.9115783181e-05  1476.81538888
9.45429343768e-05  1433.89791563
0.00010030059908  1392.23219967
0.000106408905564  1351.78175804
0.000112889207913  1312.52071454
0.000119764160675  1274.38602886
0.00012705779806  1237.38183874
0.000134795617962  1201.43949119
0.000143004671096  1166.56244079
0.000151713655566  1132.68642013
0.00016095301719  1099.81421454
0.000170755055936  1067.88571735
0.000181154038843  1036.90305842
0.000192186319809  1006.81007977
0.000203890466685  977.608269949
0.000216307396106  949.245219036
0.000229480516529  921.721789547
0.000243455879985  894.989128821
0.000258282343077  869.04749033
0.00027401173777  843.851396174
0.0002906990526  819.400510131
0.000308402624903  795.652553228
0.00032718434476  772.606621799
0.000347109871356  750.223465072
0.000368248862522  728.501637589
0.000390675218249  707.404749683
0.000414467339041  686.930843509
0.000439708399988  667.046225884
0.000466486641547  647.748459935
0.000494895678018  629.006386033
0.000525034824809  610.817125636
0.00055700944564  593.151891201
0.000590931320879  576.007403705
0.000626919038321  559.357088062
0.000665098407754  543.197309432
0.000705602900787  527.50354834
0.000748574117445  512.271861673
0.000794162281197  497.479632921
0.000842526764122  483.122660262
0.000893836644057  469.18008331
0.00094827129568  455.647491988
0.00100602101759  442.50564254
0.00106728769756  429.752882889
0.00113228551834  417.368716241
0.00120124170641  405.342276247
0.00127439732633  393.66300112
0.0013520081235  382.331722539
0.00143434541822  371.328039391
0.00152169705419  360.642292236
0.00161436840479  350.265094445
0.00171268344064  340.19609007
0.00181698586218  330.418182474
0.00192764030118  320.92278894
0.00204503359553  311.701570651
0.00216957614149  302.753346007
0.00230170332851  294.063743278
0.00244187706122  285.625138079
0.00259058737424  277.430123357
0.00274835414534  269.476966117
0.00291572891279  261.753543912
0.00309329680358  254.253083279
0.00328167857891  246.969004084
0.00348153280437  239.899226536
0.00369355815216  233.033489605
0.00391849584362  226.365774743
0.0041571322405  219.890235286
0.00441030159395  213.605781834
0.00467888896102  207.502585115
0.00496383329874  201.575300654
0.00526613074664  195.818737025
0.00558683810911  190.227851284
0.00592707654995  184.797744522
0.00628803551184  179.523657548
0.00667097687451  174.400966685
0.00707723936617  169.429543421
0.00750824324357  164.600924995
0.0079654952571  159.910886408
0.00845059391826  155.355323494
0.00896523508788  150.930249321
0.00951121790474  146.631790704
0.0100904510751  142.456184811
0.0107049595456  138.399775869
0.0113568915819  134.461734057
0.0120485262793  130.636051898
0.0127822815297  126.919386056
0.0135607224748  123.308488605
0.0143865704736  119.80020422
0.0152627126154  116.391467441
0.0161922118137  113.079300031
0.0171783175131  109.860808406
0.0182244770497  106.735298724
0.019334347702  103.698050692
0.0205118094771  100.746417895
0.0217609786742  97.8778295338
0.0230862222755  95.0897882573
0.0244921732121  92.3798680613
0.0259837465607  89.745712261
0.0275661567262  87.1850315305
0.0292449356708  84.6956020081
0.0310259522532  82.2752634695
0.0329154327454  79.9219175641
0.0349199825996  77.6335261159
0.0370466095399  75.4081094879
0.0393027480609  73.2437450077
0.0416962854178  71.138565455
0.0442355891998  69.0907576096
0.046929536582  67.1001550578
0.0497875453599  65.1635513519
0.0528196068723  63.2792930692
0.0560363209308  61.4457759327
0.0594489328755  59.661443673
0.0630693728876  57.9247869498
0.0669102976965  56.2343423294
0.0709851348262  54.5886913192
0.0753081295371  52.9864594568
0.0798943946259  51.4263154543
0.0847599632586  49.9069703949
0.0899218450211  48.4271769816
0.0953980853828  46.9857288352
0.101207828783  45.5814598409
0.107371385556  44.2132435388
0.113910302936  42.8799925584
0.120847440385  41.5819767388
0.128207049504  40.3169469987
0.136014858819  39.0839350978
0.144298163721  37.8820102659
0.153085921892  36.7102788036
0.162408854535  35.5678836982
0.172299553776  34.4540042447
0.182792596601  33.3678556647
0.193924665734  32.308688714
0.205734677877  31.275789268
0.21826391976  30.2684778733
0.231556192473  29.2861092543
0.245657964595  28.3280717603
0.260618534639  27.39378674
0.276490203398  26.4827078281
0.293328456785  25.5943201292
0.311192159803  24.7306240923
0.330143762335  23.8888313359
0.350249517461  23.068524424
0.371579713075  22.2693133415
0.394208917601  21.4908339635
0.418216240683  20.7327463344
0.443685609741  19.9947327466
0.470706063374  19.2764956094
0.499372062633  18.5814624117
0.529783821248  17.9058870126
0.562047655962  17.2495309893
0.59627635821  16.6121662099
0.632589588425  15.9935717084
0.67111429436  15.3935303853
0.711985154886  14.8118255572
0.755345050819  14.2482373855
0.801345564414  13.7073399844
0.850147509286  13.184387782
0.901921492602  12.6791471844
0.956848511501  12.1913677952
1.01512058585  11.7251504736
1.07694142953  11.2760955594
1.14252716259  10.8438981668
1.21210706679  10.4282247684
1.28592438716  10.0341549628
1.36423718234  9.65617813944
1.44731922674  9.29388161111
1.49073880354  9.1184749412
1.53546096765  8.94681767304
1.58152479668  8.7820558928
1.62897054058  8.621014377
1.6778396568  8.46362995061
1.7281748465  8.30983728492
1.78002009189  8.15956891874
1.83342069465  8.01275528705
1.88842331549  7.8693247571
1.94507601496  7.72920367161
2.0034282954  7.59598884038
2.06353114427  7.46604044634
2.12543707859  7.3392823918
2.18920019095  7.21563689379
2.25487619668  7.09502456236
2.32252248258  6.97736448453
2.39219815706  6.86257431341
2.46396410177  6.75057036226
2.53788302482  6.64527842146
2.61401951557  6.54272202782
2.69244010104  6.44281769303
2.77321330407  6.34548111607
2.85640970319  6.25062730044
2.94210199428  6.15817067495
3.03036505411  6.06802521783
3.12127600574  5.98010458434
3.21491428591  5.89847551081
3.31136171449  5.81902272969
3.41070256592  5.74166346908
3.5130236429  5.66631529728
3.61841435218  5.59289627722
3.72696678275  5.52132512879
3.83877578623  5.45152140069
3.95393905982  5.38340565422
4.07255723161  5.32091314535
4.19473394856  5.26007399779
4.32057596702  5.20081669756
4.45019324603  5.14307178351
4.58369904341  5.08677216265
4.72121001471  5.03185347593
4.86284631515  4.97825452887
5.00873170461  4.92591780603
5.15899365575  4.87819592372
5.31376346542  4.83173708289
5.47317636938  4.7865022268
5.63737166046  4.74245961754
5.80649281028  4.69958637913
5.98068759459  4.65787049714
6.16010822242  4.61731344558
6.3449114691  4.57793368777
6.53525881317  4.5413480115
6.73131657756  4.50609554427
6.93325607489  4.47228348529
7.14125375714  4.44006942655
7.35549136985  4.40968028799
7.57615611095  4.3814405547
7.80344079428  4.35581551195
8.0375440181  4.33336380116
8.15810717838  4.32209607384
8.27867033865  4.31227806222
8.40285039373  4.30373057724
8.52703044881  4.29695593884
8.65493590554  4.29207283528
8.78284136227  4.28962860309
8.9145839827  4.29007507717
9.04632660314  4.29407766341
9.18202150219  4.29966169902
9.31771640123  4.31054464692
9.38759927424  4.31864582284
9.45748214725  4.32890874352
9.52736502026  4.33998811282
9.59724789327  4.35369585349
9.66922725247  4.3709535238
9.74120661167  4.39187866781
9.81318597087  4.41415890739
9.88516533007  4.44143636876
9.95930407004  4.47563780946
10.03344281  4.51707249032
10.07051218  4.5409987691
10.10758155  4.56741861291
10.14465092  4.59659372672
10.18172029  4.62879395325
10.2199017411  4.66330909117
10.2580831921  4.70177036079
10.2962646432  4.74465221236
10.3344460943  4.79250621667
10.3726275454  4.84413813526
10.4108089965  4.90213421148
10.4489904476  4.96737490839
10.4871718987  5.04089417394
10.5264987933  5.12372135765
10.5658256879  5.21818189946
10.6051525825  5.32616196661
10.6444794771  5.45002700075
10.6641429245  5.51654442292
10.6838063718  5.58821336134
10.7034698191  5.66552072998
10.7231332664  5.74900408602
10.7427967137  5.83926014459
10.762460161  5.9369566957
10.7821236083  6.04284674821
10.8017870556  6.15778415598
10.8220404064  6.2838834973
10.8422937571  6.42182847029
10.8625471078  6.57301684118
10.8828004585  6.73906153153
10.9030538093  6.91899902413
10.92330716  7.11783250767
10.9435605107  7.33809839168
10.9638138615  7.58277527758
10.9840672122  7.85130823722
11.0043205629  8.15197100673
11.0245739137  8.48980848688
11.034700589  8.67452940517
11.0448272644  8.87093483037
11.0549539397  9.07763935924
11.0650806151  9.29809035612
11.0752072905  9.53349249958
11.0853339658  9.78518707239
11.0954606412  10.0546709057
11.1055873166  10.3413547026
11.1157139919  10.6493816104
11.1258406673  10.980866736
11.1362711429  11.3493456843
11.1467016185  11.7454348763
11.1571320942  12.1753006662
11.1675625698  12.6428325497
11.1779930454  13.152517016
11.1884235211  13.7058259362
11.1988539967  14.3125572748
11.2092844723  14.9798314157
11.2197149479  15.7160617614
11.2301454236  16.5276616663
11.2405758992  17.4302536785
11.2510063748  18.4354204642
11.2562216126  18.982991189
11.2614368504  19.5639168503
11.2666520882  20.179328898
11.2718673261  20.8341903666
11.2770825639  21.5320971757
11.2822978017  22.2770813602
11.2875130395  23.0710650219
11.2927282773  23.9217585545
11.2979435151  24.8349165009
11.3031587529  25.8170397775
11.3083739907  26.8754813941
11.3135892286  28.018565277
11.3188044664  29.2527679796
11.3240197042  30.5917176472
11.329234942  32.0475017972
11.3344501798  33.6337912516
11.3396654176  35.3637233839
11.3448806554  37.2569978869
11.3500958932  39.333170818
11.3553111311  41.6141517288
11.3605263689  44.1234203175
11.3657416067  46.8891113047
11.3709568445  49.9412434118
11.3761720823  53.3127927784
11.3813873201  57.0397393721
11.3866025579  61.1610411121
11.3918177958  65.718517675
11.3970330336  70.7566250169
11.4022482714  76.3261698515
11.4074635092  82.471603319
11.412678747  89.2473439257
11.4178939848  96.6985190129
11.4231092226  104.879336555
11.4283244604  113.836198347
11.4335396983  123.613653801
11.4387549361  134.251337658
11.4439701739  145.782224727
11.4491854117  158.230760897
11.4544006495  171.610913907
11.4596158873  185.924198392
11.4633778908  196.82176263
11.4671398944  208.188521143
11.4709018979  220.223980037
11.4746639014  232.265759437
11.4784259049  245.117799523
11.4821879084  257.976671225
11.485949912  271.512405628
11.4897119155  285.055342217
11.493473919  299.268134665
11.4991169243  320.601188375
11.5028789278  334.832467385
11.5066409313  349.071062207
11.5104029349  363.316833937
11.5141649384  377.569577475
11.5160459401  384.700888052
11.5216889454  405.433607821
11.5235699472  412.350445275
11.5292129525  431.948182467
11.5310939542  438.486414092
11.5367369595  456.694604033
11.5395584621  464.901137933
11.5442609665  478.59071182
11.5517849736  497.205185941
11.5555469771  505.108365542
11.5611899824  515.042589373
11.5649519859  520.31329796
11.5668329877  522.384290228
11.5687139894  524.452094355
11.572475993  527.428221204
11.5743569947  528.325651257
11.5762379965  529.218576778
11.58  529.810645493
11.5817453466  529.293613092
11.5869813864  527.726450389
11.588726733  526.191865035
11.5939627727  521.569183716
11.5957081193  519.059792789
11.6009441591  511.510007287
11.6026895057  508.308188081
11.6044348523  505.099507612
11.6079255455  497.418643325
11.6114162387  489.723291019
11.6149069319  480.686614575
11.6166522785  476.159766563
11.6218883182  460.840559084
11.6236336648  455.725617583
11.6288697046  438.734630918
11.6306150512  433.062625367
11.635851091  414.789609344
11.6375964376  408.690658854
11.6428324774  389.289258443
11.6498138637  363.391226679
11.6515592103  356.908551697
11.6602859433  324.003952119
11.6637766365  310.828179622
11.6672673297  297.972817892
11.6707580228  285.108359947
11.674248716  272.69319615
11.6777394092  260.267919921
11.6847207956  236.586476866
11.6882114888  225.433149604
11.691702182  214.270779392
11.6986835683  193.463911282
11.7021742615  183.658375222
11.7056649547  174.260024001
11.7091556479  165.271486095
11.7126463411  156.69263085
11.7161370343  148.520820477
11.7196277275  140.751166183
11.7231184206  133.376784511
11.7266091138  126.389050422
11.730099807  119.777843993
11.7335905002  113.536497518
11.7370811934  107.647893498
11.7405718866  102.098806252
11.7440625798  96.8753911893
11.747553273  91.9691409882
11.7510439661  87.3597336205
11.7545346593  83.0325018241
11.7580253525  78.9727940778
11.7615160457  75.1715300558
11.7650067389  71.6089891808
11.7684974321  68.2712106475
11.7719881253  65.1499528277
11.7754788184  62.2267777489
11.7789695116  59.4890720705
11.7824602048  56.9247574384
11.785950898  54.527936109
11.7894415912  52.2820446027
11.7929322844  50.1767235112
11.7964229776  48.2021974685
11.7999136708  46.3539801422
11.8034043639  44.6187328273
11.8089372097  42.0801800479
11.8144700555  39.7840359567
11.8200029013  37.6959021248
11.8255357471  35.7924466587
11.8310685929  34.0530171959
11.8366014387  32.4675908937
11.8421342845  31.0119188708
11.8476671303  29.6718977816
11.8531999761  28.4351454871
11.8587328219  27.2975595985
11.8642656677  26.2428427336
11.8697985135  25.2626240093
11.8753313593  24.3495470545
11.8808642051  23.4971382694
11.8863970509  22.7046869128
11.8919298967  21.9621569679
11.8974627425  21.2650866378
11.9029955883  20.6095166962
11.9085284341  19.9952676032
11.9140612798  19.4158550802
11.9195941256  18.8684694752
11.9251269714  18.3505913134
11.936192663  17.4018916506
11.9472583546  16.546784741
11.9583240462  15.7724732171
11.9693897378  15.0683598444
11.9804554294  14.4325670046
11.991521121  13.8506700624
12.0025868126  13.3163513477
12.0136525042  12.8242191169
12.0247181958  12.3744573039
12.0357838874  11.9582571715
12.0468495789  11.572152292
12.0579152705  11.2131217022
12.0689809621  10.8819926604
12.0800466537  10.5729709633
12.0911123453  10.2840078987
12.1021780369  10.0132903109
12.1132437285  9.76179797419
12.1243094201  9.52550659469
12.1353751117  9.30313430892
12.1464408033  9.09353222299
12.1575064949  8.89788123961
12.1689041572  8.70765033798
12.1803018195  8.52796894475
12.1916994819  8.35801031666
12.2030971442  8.19702742041
12.2258924689  7.90411204927
12.2486877936  7.63977174433
12.2714831182  7.40013529572
12.2942784429  7.1819827928
12.3170737676  6.98665501396
12.3398690923  6.80782625985
12.362664417  6.64354962146
12.3854597416  6.49215600489
12.4082550663  6.3549628492
12.431050391  6.22797256376
12.4538457157  6.1101069242
12.4766410403  6.00042714211
12.499436365  5.9008232928
12.5222316897  5.80786706878
12.5457108741  5.71840682338
12.5691900585  5.63472524661
12.592669243  5.55628875185
12.6161484274  5.48262267745
12.6396276118  5.41329986949
12.6631067962  5.34793270002
12.710065165  5.23233738533
12.7570235339  5.12882322008
12.8039819027  5.03555563628
12.8509402716  4.95108033618
12.8978986404  4.87697427509
12.9462657603  4.80748444834
12.9946328802  4.74400439048
13.0430000001  4.68575058863
13.09136712  4.63465662257
13.1397342399  4.58757641035
13.1881013598  4.54403775368
13.2364684797  4.50364057945
13.2848355996  4.46605267785
13.3346537331  4.42998740004
13.3844718666  4.39633561071
13.4841081336  4.33507150892
13.5837444006  4.2849576873
13.6833806676  4.24051258362
13.7860060226  4.19968334086
13.8886313776  4.163068016
13.9912567326  4.13004052822
14.0938820876  4.1001028639
14.1995862033  4.07206820377
14.3052903189  4.04652425675
14.4109944346  4.02319579748
14.5166985502  4.00186130973
14.6255737894  3.98178942071
14.7344490285  3.96362333833
14.9521995068  3.9319555672
15.1764824994  3.90530415741
15.400765492  3.88451001853
15.6317769743  3.86907447597
15.8627884567  3.85530618873
16.1007302836  3.84790461637
16.3386721104  3.84215354091
16.4612121512  3.84225260743
16.5837521921  3.8448609508
16.7062922329  3.84996685494
16.8288322737  3.85366906928
16.9550485158  3.86049240581
17.0812647578  3.87062106472
17.2074809999  3.88435659443
17.3336972419  3.89838354859
17.4636999713  3.91735927529
17.5937027006  3.93830383396
17.7237054299  3.96486913311
17.8537081592  3.99406223863
17.9876109704  4.03144502286
18.1215137816  4.07273027204
18.2554165928  4.12344654479
18.389319404  4.17962126942
18.5272392995  4.25027025857
18.665159195  4.32933553264
18.8030790906  4.42507773988
18.8720390383  4.47734574911
18.9409989861  4.5352407648
19.0120277323  4.59888032101
19.0830564785  4.66932002634
19.1540852247  4.74467886056
19.2251139709  4.82809925779
19.2961427171  4.91764658233
19.3671714633  5.01687109643
19.4382002095  5.12378481462
19.5092289557  5.24242674398
19.5823885643  5.3747957856
19.6555481728  5.52240395295
19.7287077814  5.68325650121
19.80186739  5.86308888406
19.8750269986  6.06014477016
19.9481866072  6.28114156
20.0213462158  6.52483129006
20.0945058243  6.79917399852
20.1698602212  7.11459661721
20.245214618  7.46954352105
20.3205690149  7.86963506738
20.3582462133  8.09028773593
20.3959234117  8.32478848128
20.4336006101  8.57593384848
20.4712778086  8.84394504961
20.508955007  9.13140958802
20.5466322054  9.43895748602
20.5843094038  9.76940694574
20.6219866022  10.123707948
20.6596638007  10.5052538456
20.6973409991  10.9166088237
20.7361485135  11.3745009852
20.7749560278  11.8705847593
20.8137635422  12.4088253621
20.8525710566  12.9942999262
20.8913785709  13.6315036332
20.9301860853  14.3275268976
20.9689935997  15.0892499858
20.9883973569  15.5069037587
21.0078011141  15.9250557293
21.0272048713  16.3845426346
21.0466086284  16.8446795864
21.0660123856  17.3516279795
21.0854161428  17.8594119011
21.0951180214  18.1397703283
21.1048199  18.4203789495
21.1145217786  18.7012530715
21.1242236572  18.9824088142
21.1339255358  19.2935933823
21.1436274144  19.6050944436
21.153329293  19.9169308546
21.1630311716  20.2291224938
21.1727330502  20.5688244899
21.1824349287  20.9089247858
21.187285868  21.0791315365
21.1921368073  21.2647521661
21.1969877466  21.4504843359
21.2018386859  21.6363312502
21.2066896252  21.8222962012
21.2115405645  22.0083825724
21.2163915038  22.1945938407
21.2212424431  22.3809335801
21.2260933824  22.567405464
21.2333697914  22.8718475146
21.2382207307  23.0749852898
21.24307167  23.2782688972
21.2479226093  23.4817024987
21.2527735485  23.7025862747
21.2576244878  23.9236287267
21.2624754271  24.1448343827
21.2673263664  24.3662079002
21.2721773057  24.5877540707
21.277028245  24.8094778243
21.2806664495  24.9758902244
21.2830919192  25.086913634
21.2855173888  25.2072924841
21.2903683281  25.4482420756
21.2952192674  25.6893890488
21.3000702067  25.9307390554
21.3037084112  26.1118882947
21.3085593505  26.368484179
21.3134102898  26.6252995153
