MT = 1
Total no. of energy Points = 63
Energy in eV  :  Xsec in barns 
 
42375.1  14.3815100944
42377.5410156  14.1511814181
42378.7615234  14.0751966087
42379.9820313  14.0288681913
42382.4230469  13.9943838698
50000  13.7241046051
66000  13.2838900042
80000  12.9709116306
100000  12.6252768581
130000  12.1535915698
180000  11.4780315062
240000  10.7927507701
280000  10.3805700074
325000  9.96843774938
380000  9.52826102279
450000  9.05567400547
489897.9  8.82024032077
561000  8.45753189954
600000  8.27384089618
666000  8.00399025492
741000  7.73814953966
800000  7.56188550085
861000  7.41729213274
937245.4  7.26735513995
990000  7.18018962038
1080517  7.06399318107
1128000  7.01854809346
1225000  6.95458204101
1326000  6.92526608853
1431000  6.92857673372
1624435  6.99193906787
1849324  7.1053720431
2348357  7.3993010339
2600000  7.525458794
3003000  7.6753424042
3401823  7.73416701807
3570000  7.74508296451
3916000  7.72601306938
4500000  7.6089112714
4950000  7.44527115354
5426775  7.24266800408
6403176  6.78650492915
6903000  6.5722871844
7503000  6.34141956358
7875000  6.21339763717
8515000  6.02098713997
9000000  5.90394591907
9453000  5.81862879198
10153000  5.72939759801
10585000  5.69456518002
11026000  5.67578051602
11500000  5.67145158996
12403000  5.69923440204
13366000  5.76334892404
16290000  6.00727406004
17391000  6.08042847403
18500000  6.13930510864
19500000  6.17123387921
20503000  6.18393453002
21528000  6.17439897601
22791000  6.13876683001
25200000  6.0098046
30000000  5.6531764545
MT = 2
Total no. of energy Points = 2714
Energy in eV  :  Xsec in barns 
 
1e-05  29.862827257
1.0609e-05  29.046320146
1.12550881e-05  28.255129237
1.19405229653e-05  27.4885574387
1.26677008139e-05  26.7459286656
1.34391637934e-05  26.0265872059
1.42576088685e-05  25.3298970991
1.51258972486e-05  24.6552415361
1.6047064391e-05  24.0020222638
1.70243306124e-05  23.3696590062
1.80611123467e-05  22.7575888962
1.91610340886e-05  22.165265918
2.03279410646e-05  21.5921603607
2.15659126754e-05  21.037758278
2.28792767574e-05  20.5015609626
2.42726247119e-05  19.9830844226
2.57508275569e-05  19.4818588689
2.73190529551e-05  18.9974282085
2.898278328e-05  18.5293495424
3.07478347818e-05  18.0771926732
3.262037792e-05  17.6405396139
3.46069589353e-05  17.2189841029
3.67145227345e-05  16.8121311247
3.8950437169e-05  16.4195964315
4.13225187926e-05  16.0410060724
4.38390601871e-05  15.6759959241
4.65088589525e-05  15.324211225
4.93412484627e-05  14.9853061154
5.2346130494e-05  14.658943178
5.55340098411e-05  14.3447929879
5.89160310405e-05  14.0425336631
6.25040173308e-05  13.7518504239
6.63105119863e-05  13.4724351563
7.46330654362e-05  12.9462068648
8.40001726657e-05  12.4615012377
9.45429343768e-05  12.0160511869
0.000106408905564  11.6076582737
0.000119764160675  11.2341821669
0.000134795617962  10.8935317221
0.000151713655566  10.5836580641
0.000170755055936  10.3025500404
0.000192186319809  10.0482323708
0.000216307396106  9.81876670759
0.000243455879985  9.61225566287
0.00027401173777  9.42684963211
0.000308402624903  9.26075598281
0.000347109871356  9.11224990069
0.000390675218249  8.97968594472
0.000439708399988  8.86150920588
0.000494895678018  8.75626494421
0.00055700944564  8.66260572232
0.000626919038321  8.57929535851
0.000794162281197  8.43933259344
0.00100602101759  8.32865540822
0.00127439732633  8.24107548607
0.00161436840479  8.17167674531
0.00204503359553  8.11656067986
0.00259058737424  8.07263076458
0.0041571322405  8.00894610975
0.00667097687451  7.96610579228
0.0107049595456  7.93433448077
0.0275661567262  7.87570665662
0.182792596601  7.51879688963
0.293328456785  7.23405355212
0.350249517461  7.05995627914
0.391338464318  6.91239996519
0.397165484483  6.89969419845
0.406035185129  6.89837993362
0.422921173391  6.93725551614
0.433993448363  6.9379727962
0.447013251814  6.89968761393
0.614164648956  6.2373601649
0.69124772319  5.88954729798
0.755345050819  5.5567006753
0.801345564414  5.28329799307
0.825385931346  5.12475609282
0.850147509286  4.94623705065
0.875651934565  4.73939799181
0.888786713584  4.61969525733
0.908685903797  4.41264832288
0.922214726186  4.2473334223
0.941171988558  3.99139060762
0.948139332089  3.91596842925
0.951623003854  3.8923321274
0.955106675619  3.88318067919
0.958482979533  3.89194170816
0.961751915595  3.92007466204
0.965020851657  3.96965235136
0.96828978772  4.04138538773
0.971558723782  4.13421249704
0.974827659844  4.24510289362
0.98647792369  4.70072647824
0.99109770791  4.85887259748
0.994793535286  4.95870235207
0.998489362661  5.0299529081
1.00218519004  5.07160577526
1.00588101741  5.08550887825
1.00957684479  5.07557628061
1.01327267216  5.04683530414
1.02083063915  4.9511099084
1.03796079903  4.6930210983
1.04557420343  4.59350798398
1.05341600995  4.50556541632
1.06125781648  4.43169990219
1.069099623  4.37094109004
1.07694142953  4.32267951369
1.08501849025  4.28594469593
1.09309555097  4.26287361857
1.10117261169  4.25454182913
1.10924967242  4.26257765368
1.11756904496  4.29030185396
1.1258884175  4.34091134216
1.13420779005  4.41855474496
1.14252716259  4.52856774281
1.14681163945  4.59999290065
1.15109611631  4.6828499421
1.15538059317  4.77836076813
1.15966507003  4.88790299865
1.16394954689  5.01303481455
1.16823402375  5.15552380187
1.17251850061  5.31738010383
1.17680297747  5.50089487656
1.18121598863  5.71532483879
1.1856289998  5.95879569901
1.19004201096  6.23509894054
1.19445502213  6.54862931559
1.19886803329  6.90450308584
1.20328104446  7.30870249671
1.20769405562  7.76825148968
1.20990056121  8.02131365374
1.21210706679  8.29142987312
1.21437976754  8.58882529608
1.21665246829  8.90718623509
1.21892516904  9.24817637941
1.22119786979  9.61361892287
1.22347057054  10.005514811
1.22574327129  10.4260635474
1.22801597204  10.8776869661
1.23028867279  11.3630564317
1.23256137354  11.8851240179
1.23483407429  12.4471583017
1.23710677504  13.0527855371
1.23937947579  13.7060371292
1.24165217654  14.4114045019
1.24392487729  15.1739026907
1.24619757804  15.9991442564
1.24847027879  16.8934254477
1.25081116057  17.8941960055
1.25315204234  18.9844678844
1.25549292411  20.1741588229
1.25783380588  21.4745546661
1.26017468766  22.8985354739
1.26251556943  24.4608436344
1.2648564512  26.1784017278
1.26719733298  28.0706888796
1.26953821475  30.160185172
1.27187909652  32.4728941382
1.27421997829  35.0389531305
1.27539041918  36.4277089808
1.27656086007  37.8933399834
1.27773130095  39.4411073077
1.27890174184  41.0766812844
1.28007218273  42.8061721217
1.28124262361  44.6361619607
1.2824130645  46.5737380674
1.28358350539  48.6265268925
1.28475394627  50.8027286401
1.28592438716  53.1111518966
1.28712994127  55.6370435809
1.28833549538  58.3243165131
1.2895410495  61.1848438633
1.29074660361  64.2313270818
1.29195215772  67.4773232147
1.29315771184  70.9372657074
1.29436326595  74.6264769189
1.29556882006  78.5611703641
1.29677437417  82.7584405145
1.29797992829  87.2362378093
1.2991854824  92.0133263854
1.30039103651  97.1092219278
1.30159659063  102.544106987
1.30280214474  108.338721117
1.30400769885  114.514223285
1.30521325297  121.092024158
1.30641880708  128.093586177
1.30762436119  135.54018971
1.3088299153  143.452664075
1.31003546942  151.851082906
1.31124102353  160.754424051
1.31244657764  170.180195135
1.31365213176  180.144026905
1.31485768587  190.659237605
1.31606323998  201.736372827
1.31726879409  213.382726536
1.31847434821  225.601850254
1.31967990232  238.393058663
1.32088545643  251.750941056
1.32209101055  265.664889218
1.32450211877  295.089937221
1.32647073635  320.572491533
1.32843935393  347.192433662
1.33237658908  402.942780577
1.33631382423  460.055409847
1.34025105939  515.569364217
1.34221967696  541.675262985
1.34418829454  566.097052156
1.34615691212  588.406517599
1.34812552969  608.200229908
1.35009414727  625.113837984
1.35206276485  638.835370508
1.35403138242  649.116806641
1.356  655.783259997
1.35805929558  658.7854807
1.36011859117  657.715493985
1.36217788675  652.65857465
1.36423718234  643.793080445
1.36551615469  636.482014811
1.36679512705  627.879048214
1.36935307177  607.152295671
1.37191101649  582.392579045
1.3744689612  554.456587503
1.37702690592  524.228196876
1.38725868479  396.639024348
1.3898166295  366.357049949
1.39237457422  337.636604216
1.39493251894  310.730666866
1.39749046366  285.788942327
1.40004840837  262.872943228
1.40260635309  241.972704189
1.40388532545  232.259984559
1.40516429781  223.023563973
1.40648163934  213.993142752
1.40779898086  205.43602381
1.40911632239  197.333805936
1.41043366392  189.667161363
1.41175100545  182.416181628
1.41306834698  175.560678369
1.41438568851  169.080440801
1.41570303004  162.955452307
1.41702037157  157.166069045
1.41965505463  146.518238986
1.42097239616  141.623510861
1.42360707921  132.6074249
1.42624176227  124.518728445
1.42887644533  117.244643005
1.43151112839  110.685504664
1.43414581145  104.753976137
1.43678049451  99.3739769122
1.43941517756  94.4794917966
1.44204986062  90.01336682
1.44468454368  85.926161204
1.44731922674  82.1750941604
1.45003295029  78.623817817
1.45274667384  75.3547782195
1.45546039739  72.3375820899
1.45817412094  69.5458217609
1.46088784449  66.9564815789
1.46360156804  64.549437782
1.46631529159  62.3070379627
1.46902901514  60.2137475656
1.47174273869  58.2558524441
1.47717018579  54.699027722
1.48259763289  51.5546487017
1.48802507999  48.757382403
1.4935339388  46.2190202283
1.49912420931  43.907259221
1.50471447983  41.8234142723
1.50750961508  40.8568523014
1.5130998856  39.057280383
1.51869015611  37.4162215687
1.52428042662  35.9135233127
1.52987069714  34.5321864204
1.53546096765  33.2577841914
1.54121894628  32.0439439858
1.54697692491  30.9189186045
1.55273490353  29.8727328729
1.55849288216  28.8967288767
1.57000883942  27.1259768714
1.58152479668  25.5565880062
1.59338623265  24.1094883578
1.60524766863  22.8012980007
1.6200744636  21.3231048304
1.63202486034  20.2375745795
1.6442421394  19.2188322866
1.65645941845  18.3114408866
1.66256805798  17.9208290999
1.6686766975  17.5983128644
1.67325817715  17.4223657695
1.67631249691  17.3485870168
1.67941263147  17.3197273676
1.68255858083  17.349471545
1.68570453019  17.4528285613
1.68885047954  17.646402799
1.6919964289  17.9490193152
1.69514237826  18.3812572238
1.69671535293  18.6526983956
1.69828832761  18.9646174112
1.69986130229  19.3196411008
1.70143427697  19.7202743464
1.70300725165  20.1688382631
1.70458022633  20.6674031256
1.706153201  21.2177171609
1.70772617568  21.8211326422
1.70929915036  22.4785310279
1.71087212504  23.1902491681
1.71244509972  23.9560088417
1.7140180744  24.7748520607
1.71716402375  26.5642309032
1.72030997311  28.5352749212
1.7242424098  31.198073667
1.73114206278  36.1040816577
1.73608742325  39.4721179457
1.73806556744  40.7111884576
1.74004371162  41.8624005677
1.74202185581  42.91003614
1.744  43.840174365
1.74625125574  44.7409558279
1.74850251149  45.4611077033
1.75075376723  45.9919057578
1.75300502297  46.3294370809
1.75525627872  46.4745870134
1.75863316233  46.3446926132
1.76088441808  46.0417259866
1.76313567382  45.5824127007
1.76538692956  44.9840408234
1.76763818531  44.2656546307
1.77214069679  42.5491612492
1.77664320828  40.5920180255
1.78836393608  35.3221139705
1.79170147375  33.9399776435
1.79503901142  32.648734428
1.79837654909  31.4560001171
1.80171408676  30.3635124664
1.80505162444  29.368716908
1.80838916211  28.4661864273
1.81172669978  27.6487987432
1.81506423745  26.908646139
1.81840177513  26.2376904935
1.8217393128  25.6281982931
1.82507685047  25.07300008
1.83008315698  24.3280370906
1.83685835845  23.4585611838
1.84373368606  22.7055892373
1.85060901366  22.0545996071
1.85748434127  21.4845517889
1.86435966887  20.9797762582
1.87123499648  20.5284376627
1.88498565169  19.7517407623
1.89904569664  19.0894211637
1.91320887151  18.5217413355
1.92383125266  18.1468301674
1.93799442752  17.7008688606
1.95237005001  17.2994284266
1.96695812012  16.9348748206
1.99613426035  16.306768097
2.02596686373  15.7697761109
2.05601828816  15.3082910927
2.08674586964  14.8995001434
2.10996059501  14.6243898412
2.14137785668  14.289290278
2.17325941286  13.985501811
2.23845719525  13.452762264
2.30561091111  12.9966341411
2.37477923844  12.5972814205
2.44602261559  12.2404993295
2.51940329406  11.9153814115
2.67283495467  11.3244876131
2.92067892151  10.4383789005
2.98071708296  10.1892722655
3.02484861287  9.97252991889
3.05025182478  9.82092965282
3.09712778421  9.49400326045
3.10849165316  9.45415004791
3.12056576393  9.46165539827
3.15053482146  9.61625037865
3.15989910719  9.63604432038
3.16926339293  9.61805567024
3.17862767867  9.56298418033
3.18799196441  9.47908286599
3.20320892873  9.30785063418
3.22395623234  9.04970922863
3.24806808948  8.72973797241
3.27217994663  8.36454323615
3.2842358752  8.15479118265
3.29629180377  7.92181826247
3.30834773234  7.66398282582
3.33309252574  7.10709518516
3.33930132895  6.99922061874
3.34240573056  6.96043099045
3.34706233297  6.93058649865
3.35016673458  6.93567730463
3.35327113618  6.9664662871
3.35637553779  7.02854410808
3.3594799394  7.12806130127
3.36258434101  7.27162297132
3.36568874261  7.4661300872
3.36724094342  7.58467371985
3.36879314422  7.71856368869
3.37034534502  7.8686403376
3.37189754583  8.03571195061
3.37344974663  8.22054346817
3.37500194744  8.42384462743
3.37655414824  8.64625765811
3.37810634904  8.88834468799
3.37965854985  9.15057503159
3.38121075065  9.43331255508
3.38276295145  9.73680332598
3.38431515226  10.0611637691
3.38741955386  10.772245488
3.39052395547  11.56450038
3.39362835708  12.4332075608
3.39750885909  13.6148469099
3.4006132607  14.6236904777
3.41319583481  18.9632475313
3.41735128296  20.3428402937
3.42067564148  21.3731539102
3.424  22.3140900851
3.42678198884  23.0185283881
3.4309549721  23.9116980816
3.43373696094  24.3879712176
3.43651894978  24.7637361367
3.43930093862  25.0372057703
3.44208292746  25.2089134095
3.4448649163  25.2815885301
3.44764690514  25.2599537497
3.45042889399  25.1504571036
3.45321088283  24.9609565585
3.45599287167  24.700375133
3.45877486051  24.3783451496
3.46433883819  23.5899425568
3.46990281587  22.6743748307
3.48103077123  20.7320768695
3.48659474891  19.8050588174
3.49215872659  18.9482835936
3.49633170985  18.3604439802
3.50189568754  17.6533689961
3.50745966522  17.0319327262
3.5130236429  16.4896571308
3.51961056223  15.9378686079
3.52619748156  15.46900287
3.53278440089  15.0683674738
3.53937132022  14.7232786311
3.54595823955  14.42331531
3.55254515888  14.1601513462
3.56571899754  13.7193616225
3.5788928362  13.3633803833
3.59206667486  13.0684434956
3.60524051352  12.8188975335
3.61841435218  12.6040015552
3.64555245983  12.2402297641
3.67269056747  11.9493591851
3.69982867511  11.7050248174
3.77238919041  11.1534532733
3.78985934721  11.0446445486
3.80383547264  10.9890507789
3.81781159808  10.9798681342
3.83178772351  11.021732965
3.86542607372  11.1881337972
3.87904345619  11.2050609257
3.89266083867  11.178666809
3.95393905982  10.8900387304
3.9910072385  10.7480606877
4.0503163244  10.5676749922
4.16418976933  10.2914177442
4.56701081874  9.47036304946
4.63526565765  9.31051683374
4.73006228349  9.04864917012
4.80088043371  8.79896120817
4.83628950882  8.64472313383
4.871964152  8.45884452268
4.8947587441  8.31788787617
4.91299441778  8.18847627457
4.93123009146  8.04018111144
4.94946576514  7.86793427528
4.96770143882  7.66526193025
4.98593711251  7.42539365322
5.02326524153  6.85719990071
5.03053200999  6.77313159863
5.03779877846  6.72707780922
5.04143216269  6.7253871727
5.04506554692  6.74248944486
5.04869893115  6.78226485711
5.05233231538  6.84888669453
5.05596569961  6.94672728605
5.05959908384  7.08023094157
5.06323246807  7.25375394395
5.0668658523  7.47137420812
5.07049923654  7.73667607472
5.07413262077  8.05251870969
5.077766005  8.42079946909
5.08139938923  8.84222605525
5.08503277346  9.31611301564
5.08866615769  9.84021882596
5.09229954192  10.4106392197
5.09593292615  11.0217704469
5.09956631038  11.6663527634
5.11409984731  14.3856374854
5.11773323154  15.0442750264
5.12136661577  15.6707912387
5.125  16.2540295337
5.12924920697  16.8677771404
5.13349841394  17.3950119065
5.13774762091  17.8254919609
5.14093452613  18.0808151154
5.1451837331  18.3287744829
5.14943294007  18.4716340366
5.15368214704  18.5134351292
5.157931354  18.4614020409
5.16262107316  18.3068581144
5.16745762971  18.0569178674
5.17229418627  17.733730973
5.17713074282  17.3565312851
5.20010438644  15.3338234871
5.20977749955  14.5634367863
5.21945061265  13.9013884342
5.22912372575  13.3497072009
5.23879683886  12.8962964994
5.24846995196  12.5239970823
5.26056134334  12.1471812327
5.27023445645  11.8996224034
5.27990756955  11.6884262464
5.29925379576  11.3457375557
5.31874511867  11.0755511044
5.33867173166  10.8519372353
5.35859834466  10.6658942663
5.37852495765  10.5073395922
5.4034332239  10.3376720703
5.44328644989  10.1125204324
5.48343857507  9.92448932562
5.56553622062  9.61094348445
5.64794173233  9.34686303482
5.89359020243  8.61605825656
5.98068759459  8.32123660835
6.04797033002  8.0596282591
6.09282548698  7.86090110445
6.13768064394  7.63563097554
6.18320862826  7.3711326514
6.20630903409  7.21936002437
6.22940943993  7.053118458
6.26406004868  6.77104158672
6.28716045451  6.55670452289
6.31026086034  6.31732129389
6.33336126618  6.04972974664
6.3568081781  5.74855258616
6.39249830511  5.26663224053
6.40142083687  5.16470102847
6.40736919137  5.111383299
6.41331754587  5.07703063579
6.41926590037  5.07063925843
6.42224007763  5.08162532789
6.42521425488  5.1045303065
6.42818843213  5.1415628331
6.43116260938  5.19525653699
6.43413678663  5.26850001457
6.43711096388  5.36456493924
6.44008514113  5.48713086272
6.44305931838  5.64030502127
6.44603349563  5.82863522972
6.44900767289  6.05711374899
6.45198185014  6.33116986407
6.45346893876  6.48710080715
6.45495602739  6.65664883337
6.45644311601  6.84060353124
6.45793020464  7.03977488532
6.45941729326  7.25499109508
6.46090438189  7.48709606575
6.46239147052  7.73694655961
6.46387855914  8.00540899883
6.46536564777  8.29335591319
6.46685273639  8.601662029
6.46833982502  8.93119999845
6.46982691364  9.28283577222
6.47131400227  9.6574236218
6.47280109089  10.0558008219
6.47428817952  10.4787820073
6.47577526815  10.9271532235
6.47726235677  11.4016656941
6.4787494454  11.9030293333
6.48023653402  12.4319060357
6.48172362265  12.9889027819
6.48321071127  13.5745646007
6.4846977999  14.1893674353
6.48618488853  14.8337109643
6.48915906578  16.212194547
6.49213324303  17.7114172535
6.49510742028  19.3311146092
6.49808159753  21.0691538228
6.50105577478  22.921357647
6.50402995203  24.8813630045
6.50700412928  26.9405230514
6.50997830653  29.0878606228
6.51443957241  32.444498173
6.52633628142  41.7733948154
6.53228463592  46.3279746478
6.53525881317  48.4965157615
6.53994410988  51.6927539938
6.54462940658  54.5434366939
6.54697205494  55.8142308836
6.54931470329  56.9702327052
6.55165735165  58.0038088313
6.55538528576  59.380390198
6.55815585729  60.1798290143
6.56231171457  61.0086257871
6.5650822861  61.3109629009
6.56923814338  61.3915290157
6.57200871491  61.2025048182
6.57477928643  60.8270623715
6.57754985796  60.274256766
6.58032042948  59.5550239326
6.58309100101  58.6819191903
6.58586157253  57.6688316992
6.59140271558  55.2831218598
6.59694385863  52.524148283
6.60248500168  49.5202714118
6.61356728778  43.2526349584
6.61910843082  40.1888603225
6.62603485964  36.5736639447
6.63157600268  33.9115877805
6.63711714573  31.4842316274
6.63988771726  30.3624550189
6.64265828878  29.3022900716
6.64542886031  28.3031019219
6.64819943183  27.3636690083
6.65097000336  26.4822855983
6.65374057488  25.6568587428
6.6565111464  24.8849981577
6.66205228945  23.4914096385
6.6675934325  22.2793351151
6.67313457555  21.2261338898
6.6786757186  20.310052796
6.68421686165  19.511077945
